sample1,,sample1,,
Wavelength (nm),Abs,Wavelength (nm),Abs,
800.0673828,0.1372050196,800.0673828,0.1369069666,
798.958252,0.13565965,798.958252,0.1374661624,
797.9874268,0.1370045841,797.9874268,0.1374520957,
797.0161743,0.1374318749,797.0161743,0.1371917427,
796.0445557,0.1387260258,796.0445557,0.1371290535,
794.9336548,0.1380782872,794.9336548,0.1382924318,
793.9612427,0.1356763542,793.9612427,0.1387896538,
792.9884033,0.1375788897,792.9884033,0.1380204856,
792.0152588,0.138857469,792.0152588,0.1389578432,
791.041687,0.1383799314,791.041687,0.1372677237,
790.067749,0.1374157518,790.067749,0.1369667649,
788.9542236,0.1385787576,788.9542236,0.1386806071,
787.9795532,0.139926523,787.9795532,0.1381324083,
787.0044556,0.1392737925,787.0044556,0.1389315426,
786.0289917,0.140741244,786.0289917,0.1389891058,
785.0531006,0.1390441507,785.0531006,0.1383608431,
783.937439,0.1392849535,783.937439,0.1401872635,
782.9608154,0.1386208683,782.9608154,0.1391820908,
781.9838257,0.1392392665,781.9838257,0.1389325708,
781.0064087,0.1408418417,781.0064087,0.1401669234,
780.0286865,0.1390597373,780.0286865,0.1390264332,
779.0505981,0.1397287101,779.0505981,0.1407518089,
777.932312,0.1398400366,777.932312,0.138950035,
776.9534302,0.1398346871,776.9534302,0.1404283047,
775.9741821,0.1409877241,775.9741821,0.1398312598,
774.9945068,0.1398386061,774.9945068,0.1403385699,
774.0145264,0.1410792768,774.0145264,0.1394255012,
773.0341797,0.1403525174,773.0341797,0.1404939145,
772.0534668,0.1402252316,772.0534668,0.1392696947,
770.9321899,0.139546454,770.9321899,0.1416834593,
769.9506836,0.1390143186,769.9506836,0.1412450522,
768.968811,0.1405804157,768.968811,0.1412476599,
767.9865723,0.1412919611,767.9865723,0.142039448,
767.0040283,0.1403505504,767.0040283,0.1420909315,
766.0210571,0.1405688673,766.0210571,0.1405141205,
765.0377197,0.1409980655,765.0377197,0.1408829838,
764.0540771,0.141315788,764.0540771,0.141307801,
763.0700073,0.1399963796,763.0700073,0.1412317902,
761.9450073,0.1423316449,761.9450073,0.1415764987,
760.9602051,0.142039448,760.9602051,0.141020745,
759.9750366,0.1406218559,759.9750366,0.1421669126,
758.989502,0.1418555677,758.989502,0.1419040114,
758.0036011,0.1411020458,758.0036011,0.1411305666,
757.017395,0.1408605576,757.017395,0.1405219287,
756.0307617,0.1414709091,756.0307617,0.1408620626,
755.0438232,0.1421192586,755.0438232,0.1412358731,
754.0565186,0.141141817,754.0565186,0.1405053288,
753.0688477,0.1417116225,753.0688477,0.140824616,
751.9396362,0.1425660104,751.9396362,0.1414418966,
750.9512329,0.1414003521,750.9512329,0.1414822638,
749.9624634,0.1408357471,749.9624634,0.1409372538,
748.9733276,0.141812548,748.9733276,0.1411808282,
747.9838257,0.1411249787,747.9838257,0.1420385242,
746.9939575,0.1406608671,746.9939575,0.1419116259,
746.0037842,0.140856415,746.0037842,0.1408664733,
745.0132446,0.1417772323,745.0132446,0.140932858,
744.0223389,0.1406748891,744.0223389,0.1411472261,
743.0310669,0.1413903832,743.0310669,0.1406948566,
742.0394897,0.1398362517,742.0394897,0.1405775547,
741.0475464,0.1403108239,741.0475464,0.1398975104,
740.0552368,0.140830487,740.0552368,0.1401812881,
739.0626221,0.1398498267,739.0626221,0.1391911805,
738.0695801,0.1400388926,738.0695801,0.1390787363,
736.9343262,0.1397711486,736.9343262,0.1397095025,
735.9405518,0.1399880499,735.9405518,0.139716357,
734.9464722,0.139493525,734.9464722,0.1393595934,
733.9520264,0.1390344203,733.9520264,0.1384685785,
732.9572754,0.1382026374,732.9572754,0.1385906637,
731.9621582,0.1391373277,731.9621582,0.1388150603,
730.9666748,0.1386003047,730.9666748,0.1389045864,
729.9708252,0.1381393075,729.9708252,0.1379149705,
728.9746704,0.1380496174,728.9746704,0.1376749575,
727.9782104,0.1382676661,727.9782104,0.1385651231,
726.9813232,0.1380738467,726.9813232,0.1381136924,
725.9841309,0.1385763437,725.9841309,0.137914747,
724.9865723,0.1374730915,724.9865723,0.1372289956,
723.9887085,0.1387819201,723.9887085,0.1377342492,
722.9904785,0.1384072751,722.9904785,0.1380394399,
721.9919434,0.1378622949,721.9919434,0.138334617,
720.993042,0.1386899054,720.993042,0.1389185339,
719.9937744,0.1390517205,719.9937744,0.1396759003,
718.9942017,0.139555335,718.9942017,0.1396391243,
717.9943237,0.1401946694,717.9943237,0.1398036033,
716.9940186,0.1409434527,716.9940186,0.1406482309,
715.9934082,0.1411234438,715.9934082,0.1412885189,
714.9924927,0.1419384032,714.9924927,0.1423466951,
713.9912109,0.1426005065,713.9912109,0.1429032981,
712.989624,0.1436888129,712.989624,0.143645525,
711.9876709,0.1454592496,711.9876709,0.1444048882,
710.9854126,0.144950211,710.9854126,0.1456132829,
709.9827881,0.146212548,709.9827881,0.146243751,
708.9797974,0.1467453092,708.9797974,0.1479358971,
707.9765015,0.1487308741,707.9765015,0.1477190256,
706.9729004,0.1498195231,706.9729004,0.1487096548,
705.9689331,0.1497277915,705.9689331,0.1499391794,
704.9646606,0.150806874,704.9646606,0.1496519744,
703.960022,0.1518815011,703.960022,0.1521794051,
702.9550781,0.1518582255,702.9550781,0.1535187215,
701.9498291,0.1533421874,701.9498291,0.1533071101,
700.9442139,0.154231295,700.9442139,0.1544654965,
699.9382324,0.15509893,699.9382324,0.1545528024,
698.9319458,0.1557510048,698.9319458,0.1559576243,
698.0691528,0.1563762277,698.0691528,0.1567852944,
697.0622559,0.1578191817,697.0622559,0.1576940417,
696.0550537,0.1583807766,696.0550537,0.1586646289,
695.0475464,0.158496201,695.0475464,0.1599030942,
694.0396729,0.159594357,694.0396729,0.1599890292,
693.0314331,0.1598963886,693.0314331,0.1609548926,
692.0228882,0.1624179482,692.0228882,0.1608797163,
691.0140381,0.1623697132,691.0140381,0.1624874771,
690.0048828,0.1623705328,690.0048828,0.1624290794,
688.9953613,0.163129881,688.9953613,0.1624965817,
687.9855347,0.1634703577,687.9855347,0.1637160778,
686.9754028,0.1638585329,686.9754028,0.1640037,
685.9649048,0.1650231779,685.9649048,0.1644769758,
684.9541016,0.165035069,684.9541016,0.1647656709,
683.9429932,0.1654494107,683.9429932,0.165267244,
682.9315186,0.1651503444,682.9315186,0.1656410545,
682.0643311,0.1665397882,682.0643311,0.1659445614,
681.0522461,0.16723454,681.0522461,0.1671351045,
680.039856,0.1671546251,680.039856,0.1667855382,
679.0272217,0.1685226858,679.0272217,0.1682107002,
678.0141602,0.1679731756,678.0141602,0.1690745652,
677.0008545,0.1687129736,677.0008545,0.1688091606,
675.9871826,0.1684021205,675.9871826,0.1694610566,
674.9732056,0.1696927696,674.9732056,0.1699887812,
673.9589233,0.1701921076,673.9589233,0.1697446257,
672.9443359,0.1705173105,672.9443359,0.1694344282,
671.9294434,0.1708489209,671.9294434,0.1707924902,
671.0592041,0.1712182015,671.0592041,0.1717134416,
670.0437012,0.1722996235,670.0437012,0.1719076037,
669.0278931,0.1722375304,669.0278931,0.1733366996,
668.0117188,0.1722764075,668.0117188,0.1733902246,
666.9953003,0.1716810018,666.9953003,0.172141403,
665.9785156,0.1729974896,665.9785156,0.1723177135,
664.9614258,0.1734117121,664.9614258,0.1728575677,
663.9440308,0.1727940142,663.9440308,0.1726237237,
663.0717163,0.1722676009,663.0717163,0.1731054485,
662.0537109,0.1732214242,662.0537109,0.1728956103,
661.0354614,0.173361659,661.0354614,0.1733570695,
660.0168457,0.1729940176,660.0168457,0.1737045497,
658.9979248,0.1732610762,658.9979248,0.1740926653,
657.9786987,0.1736441255,657.9786987,0.1740208268,
656.9591675,0.1745235622,656.9591675,0.1746197939,
655.93927,0.1746719182,655.93927,0.1742594391,
655.0648804,0.1748962253,655.0648804,0.175694719,
654.0444336,0.1753451675,654.0444336,0.174721539,
653.0237427,0.1753647774,653.0237427,0.1753599048,
652.0026855,0.1755261123,652.0026855,0.1758006364,
650.9813232,0.1750336736,650.9813232,0.1763393134,
649.9596558,0.1763506234,649.9596558,0.1762422025,
648.9377441,0.1769339889,648.9377441,0.1765399128,
648.0615234,0.1759660393,648.0615234,0.1776094288,
647.0390015,0.1776471883,647.0390015,0.1772908121,
646.0161133,0.177840516,646.0161133,0.1766064167,
644.992981,0.1770450771,644.992981,0.1779324561,
643.9695435,0.1776387691,643.9695435,0.178576991,
642.9458008,0.1776266843,642.9458008,0.1788536012,
642.0680542,0.1782194972,642.0680542,0.1786172539,
641.0437622,0.1794047058,641.0437622,0.1790100932,
640.019165,0.1785979569,640.019165,0.1794801056,
638.9942017,0.179427743,638.9942017,0.1796017885,
637.9689941,0.1789722592,637.9689941,0.1794014126,
636.9434814,0.1796224564,636.9434814,0.1794473976,
636.064209,0.1804009378,636.064209,0.1796799302,
635.038147,0.180278331,635.038147,0.1805789471,
634.0117798,0.180226475,634.0117798,0.1807442605,
632.9851074,0.1808671951,632.9851074,0.1810358912,
631.9581299,0.1807145476,631.9581299,0.1806492209,
630.9308472,0.1814368218,630.9308472,0.1806941479,
630.0501099,0.1818704605,630.0501099,0.1817244291,
629.0222778,0.1824973971,629.0222778,0.1816666424,
627.9941406,0.1821928918,627.9941406,0.1818876266,
626.9657593,0.1819711775,626.9657593,0.1819488555,
625.9370117,0.182374388,625.9370117,0.1832027435,
625.0550537,0.1837112159,625.0550537,0.1830887645,
624.0257568,0.1831856072,624.0257568,0.1828544438,
622.9962158,0.1833402365,622.9962158,0.1838324666,
621.9663696,0.1836453825,621.9663696,0.182929337,
620.9362183,0.1836585104,620.9362183,0.1841445714,
620.0529785,0.1846473366,620.0529785,0.1848355979,
619.0223389,0.1838061512,619.0223389,0.1837403774,
617.991333,0.1841673553,617.991333,0.1844564229,
616.960083,0.1840555817,616.960083,0.1848081946,
615.9285278,0.1852062792,615.9285278,0.1848454326,
615.0440674,0.1847013235,615.0440674,0.1854584962,
614.0119629,0.1850960106,614.0119629,0.1857239306,
612.9796143,0.1857269108,612.9796143,0.1859012693,
611.9468994,0.1855597198,611.9468994,0.1858841926,
611.0615234,0.1852771044,611.0615234,0.1864719689,
610.0283203,0.1858495623,610.0283203,0.1862675697,
608.994812,0.1863841265,608.994812,0.1865416765,
607.9609985,0.1860927045,607.9609985,0.1870469898,
606.9269409,0.1870722026,606.9269409,0.1867360324,
606.0403442,0.187219575,606.0403442,0.187038675,
605.0057373,0.1870947033,605.0057373,0.1874645203,
603.9708862,0.1867503971,603.9708862,0.187782079,
602.9356689,0.1874608546,602.9356689,0.1882187128,
602.0481567,0.1877290606,602.0481567,0.1878468245,
601.0124512,0.1885631531,601.0124512,0.1887241006,
599.9764404,0.1886983663,599.9764404,0.1889320165,
598.9401855,0.188789472,598.9401855,0.1888799965,
598.0516968,0.1886922866,598.0516968,0.1891000271,
597.0149536,0.1888889968,597.0149536,0.1891911775,
595.9778442,0.1890660971,595.9778442,0.1890116632,
594.9404907,0.1893522441,594.9404907,0.1896374971,
594.0510864,0.1900747567,594.0510864,0.189696148,
593.0131836,0.1901710927,593.0131836,0.1901291758,
591.9750366,0.1893238276,591.9750366,0.1902897805,
590.9365845,0.1903342009,590.9365845,0.1901793927,
590.0463257,0.1902509928,590.0463257,0.1901306957,
589.0073242,0.1906710118,589.0073242,0.1906360686,
587.9680786,0.1903796643,587.9680786,0.1907079518,
586.9285889,0.1907665879,586.9285889,0.1906831712,
586.0373535,0.191059038,586.0373535,0.1909908354,
584.9973145,0.1912688762,584.9973145,0.1906449795,
583.9570313,0.1910182387,583.9570313,0.1911403835,
583.0651245,0.1908855289,583.0651245,0.1918775141,
582.024292,0.1918862611,582.024292,0.1913011223,
580.9832153,0.1912808567,580.9832153,0.1915493459,
579.9418335,0.1913069636,579.9418335,0.1919763386,
579.0490112,0.1915348619,579.0490112,0.191492945,
578.0071411,0.1915583313,578.0071411,0.1915881783,
576.9650269,0.1918376237,576.9650269,0.1921097636,
576.0715332,0.192149803,576.0715332,0.1912004799,
575.0288696,0.191702351,575.0288696,0.1915263832,
573.9859619,0.1919444054,573.9859619,0.1917583942,
572.9428101,0.1918204278,572.9428101,0.1920675784,
572.0484009,0.1918463111,572.0484009,0.191950202,
571.0046997,0.1921920776,571.0046997,0.1914053708,
569.9607544,0.1924553216,569.9607544,0.1910516769,
569.0657349,0.1917745322,569.0657349,0.1917737275,
568.0212402,0.1914229542,568.0212402,0.1917988807,
566.9765015,0.1914823651,566.9765015,0.1914536804,
565.9315186,0.1917506158,565.9315186,0.1910524368,
565.0355835,0.1917538047,565.0355835,0.1913832873,
563.9901123,0.1914346516,563.9901123,0.1911011189,
562.9443359,0.191099748,562.9443359,0.1907265037,
562.0477905,0.1909407228,562.0477905,0.1908443868,
561.0015259,0.190928787,561.0015259,0.1910895854,
559.9550171,0.1904098839,559.9550171,0.1907635331,
559.0578003,0.1905897409,559.0578003,0.1905341744,
558.0108032,0.1904543042,558.0108032,0.190180108,
556.963501,0.1902921945,556.963501,0.1908229738,
556.0656738,0.1901750118,556.0656738,0.1904821992,
555.0178833,0.1899865121,555.0178833,0.1896672547,
553.9698486,0.1896385401,553.9698486,0.1903543472,
553.0713501,0.1903819442,553.0713501,0.1896705031,
552.0228882,0.1898472905,552.0228882,0.1894861758,
550.9741211,0.1895552129,550.9741211,0.1897206157,
549.9250488,0.18979159,549.9250488,0.1891287118,
549.0256958,0.1893790662,549.0256958,0.1894771308,
547.9761963,0.1889785379,547.9761963,0.1892730594,
546.9264526,0.1884213984,546.9264526,0.1894776523,
546.0264282,0.1899525523,546.0264282,0.1898241639,
544.9761963,0.1899275035,544.9761963,0.1901303381,
543.9257202,0.189964503,543.9257202,0.1899042875,
543.0250854,0.1900175065,543.0250854,0.1901396811,
541.9740601,0.1901522428,541.9740601,0.1900298148,
541.0730591,0.1904120445,541.0730591,0.19054313,
540.0216064,0.1909236461,540.0216064,0.1910521239,
538.9699097,0.1906251907,538.9699097,0.1906648576,
538.0682373,0.190670684,538.0682373,0.1907701939,
537.0160522,0.1926360279,537.0160522,0.1930379272,
535.963623,0.1929916292,535.963623,0.1930596977,
535.0613403,0.1934289336,535.0613403,0.1936510354,
534.0084229,0.1942873597,534.0084229,0.1940600276,
532.9553223,0.1948921084,532.9553223,0.1947419047,
532.0523682,0.1953300685,532.0523682,0.1956461966,
530.9987793,0.1964486837,530.9987793,0.1964479089,
529.9448853,0.1970999241,529.9448853,0.1970406771,
529.0413818,0.1989281774,529.0413818,0.1989409924,
527.9870605,0.19797571,527.9870605,0.1980941445,
526.9324951,0.1992897838,526.9324951,0.1994044781,
526.0283813,0.1997633725,526.0283813,0.2000607103,
524.9733276,0.1992296576,524.9733276,0.1990270317,
524.0687866,0.2007668316,524.0687866,0.2005815506,
523.0133057,0.2014857084,523.0133057,0.2017610371,
521.9575806,0.2022868991,521.9575806,0.2024841309,
521.0524292,0.2030518204,521.0524292,0.2029589415,
519.9962158,0.2032703906,519.9962158,0.2037988603,
518.9397583,0.2039472163,518.9397583,0.2035701424,
518.0340576,0.2039215118,518.0340576,0.2041783035,
516.9771729,0.2051932812,516.9771729,0.2052771598,
516.0710449,0.2058930844,516.0710449,0.2056499124,
515.0136719,0.2062057555,515.0136719,0.2060060501,
513.9561157,0.2065249085,513.9561157,0.2066696137,
513.0493774,0.2067465335,513.0493774,0.2064487934,
511.991333,0.2073112577,511.991333,0.2072657496,
510.9330444,0.2074465156,510.9330444,0.2079973966,
510.0257568,0.2085006982,510.0257568,0.2087642699,
508.9670105,0.2083736956,508.9670105,0.2086289972,
508.0593262,0.2082563192,508.0593262,0.2090209275,
507.0001526,0.2091022432,507.0001526,0.2091405392,
505.9407349,0.2088138908,505.9407349,0.2093671858,
505.0324707,0.2096605152,505.0324707,0.2098182291,
503.9725952,0.2097195089,503.9725952,0.2099490613,
503.0639343,0.2097221911,503.0639343,0.2093991339,
502.0036316,0.209770605,502.0036316,0.2100307196,
500.9430847,0.2103063911,500.9430847,0.2101052403,
500.0338745,0.2098758221,500.0338745,0.2105377316,
498.9729004,0.2100500613,498.9729004,0.210022226,
498.0632935,0.2104586214,498.0632935,0.2100676149,
497.0018616,0.2105573565,497.0018616,0.2104159743,
495.9402161,0.2094350159,495.9402161,0.2099637985,
495.0300598,0.2096503228,495.0300598,0.2098960876,
493.9679565,0.2100043446,493.9679565,0.2102278769,
493.0574036,0.2101920843,493.0574036,0.2100364268,
491.9949036,0.2097516358,491.9949036,0.2098687291,
490.9321594,0.2097112387,490.9321594,0.2097332627,
490.0210266,0.2099247128,490.0210266,0.2095709294,
488.9578552,0.2092785239,488.9578552,0.2095981091,
488.0463562,0.2090274692,488.0463562,0.2097545862,
486.9827576,0.2086449414,486.9827576,0.2089210004,
486.0709229,0.2104524523,486.0709229,0.2104568183,
485.0068665,0.210486412,485.0068665,0.2103772759,
483.942627,0.2103169411,483.942627,0.2104063034,
483.0302124,0.2084615082,483.0302124,0.2096271366,
481.9655151,0.2097947299,481.9655151,0.209882319,
481.0527649,0.2104448378,481.0527649,0.2105727494,
479.9876404,0.21076262,479.9876404,0.2107931226,
479.0745239,0.2106492966,479.0745239,0.2100795507,
478.0089722,0.2104430348,478.0089722,0.2106982023,
476.9432373,0.2125087529,476.9432373,0.2119277865,
476.029541,0.211579442,476.029541,0.2122843415,
474.9633789,0.2128868401,474.9633789,0.2125989646,
474.0493469,0.2134865671,474.0493469,0.2130173296,
472.9827576,0.2131507695,472.9827576,0.2134933025,
472.0683594,0.2144168019,472.0683594,0.2144340128,
471.0013428,0.2148465514,471.0013428,0.2149329931,
469.9341431,0.2155342847,469.9341431,0.2155106068,
469.0191956,0.2158368379,469.0191956,0.2154733688,
467.9515686,0.2156322747,467.9515686,0.2158919871,
467.0362549,0.2163400799,467.0362549,0.2162496001,
465.9682312,0.2156456709,465.9682312,0.2149727046,
465.0525818,0.2169074863,465.0525818,0.2172435671,
463.9841309,0.2170681655,463.9841309,0.2169822305,
463.0681458,0.217057541,463.0681458,0.2173316032,
461.9992981,0.217167899,461.9992981,0.2171472311,
460.9302063,0.2172619253,460.9302063,0.2174507082,
460.0136719,0.2173462957,460.0136719,0.2172605246,
458.9442139,0.2178361416,458.9442139,0.2180565596,
458.0273438,0.2178104222,458.0273438,0.2178792357,
456.9574585,0.2186422795,456.9574585,0.2181175053,
456.0402527,0.2179092467,456.0402527,0.2178777903,
454.9699707,0.2182359248,454.9699707,0.2183493674,
454.0523987,0.2179646641,454.0523987,0.2182592452,
452.98172,0.2179704756,452.98172,0.2178630382,
452.0638428,0.2178792357,452.0638428,0.2181340158,
450.9927673,0.2179214358,450.9927673,0.2177308351,
450.0745239,0.2180080265,450.0745239,0.2179961354,
449.0030518,0.2183589488,449.0030518,0.2179904431,
447.9313965,0.2179824114,447.9313965,0.217556417,
447.0126343,0.2174746692,447.0126343,0.2177755833,
445.9405518,0.2178108841,445.9405518,0.2176102847,
445.0214844,0.2175471485,445.0214844,0.2174493372,
443.9490051,0.2175544053,443.9490051,0.2174820453,
443.0296021,0.2170509696,443.0296021,0.2170888484,
441.9567261,0.216935128,441.9567261,0.2173695266,
441.0369873,0.2167609036,441.0369873,0.2170529217,
439.9637451,0.2165035158,439.9637451,0.2167263329,
439.0436707,0.216650784,439.0436707,0.2167920023,
437.9700317,0.2167304158,437.9700317,0.2165311724,
437.0496216,0.2163379937,437.0496216,0.2160821706,
435.9756165,0.216112271,435.9756165,0.2159700841,
435.0548706,0.2154002786,435.0548706,0.2149540633,
433.9804993,0.2149852663,433.9804993,0.2148786485,
433.0594177,0.2146426588,433.0594177,0.2145118564,
431.9846497,0.2142674178,431.9846497,0.215051949,
431.0632629,0.2142791152,431.0632629,0.2147591561,
429.9881287,0.2135341018,429.9881287,0.2132748961,
429.0664063,0.212812379,429.0664063,0.2128771245,
427.9908752,0.2125957906,427.9908752,0.2131655663,
427.0688477,0.2114942074,427.0688477,0.211870268,
425.9929504,0.2119332701,425.9929504,0.2112504989,
425.0705872,0.2115095556,425.0705872,0.2109749764,
423.9943237,0.2095804513,423.9943237,0.2109636515,
423.0716553,0.2101374865,423.0716553,0.2105789185,
421.9950256,0.2085068077,421.9950256,0.2083150297,
421.0720215,0.2090764344,421.0720215,0.2088807523,
419.9950256,0.207483694,419.9950256,0.2081718594,
419.0717163,0.206965059,419.0717163,0.2072424293,
417.9943237,0.2061374336,417.9943237,0.2063178122,
417.0707092,0.2058308721,417.0707092,0.2055957913,
415.992981,0.2048969269,415.992981,0.2054101527,
415.0690308,0.2040636986,415.0690308,0.2031510174,
413.9909363,0.2037884742,413.9909363,0.2036808133,
413.0666809,0.202210322,413.0666809,0.2027785927,
411.9882202,0.2016320527,411.9882202,0.2021105438,
411.0636597,0.2006506175,411.0636597,0.200821951,
409.9848328,0.1995962262,409.9848328,0.1984544843,
409.059967,0.1992208064,409.059967,0.1989543736,
407.9807739,0.1972325593,407.9807739,0.1975245774,
407.055603,0.1967642903,407.055603,0.1964410394,
405.9760742,0.1955081671,405.9760742,0.1953797191,
405.0505981,0.1941877753,405.0505981,0.193891108,
403.9707031,0.192666173,403.9707031,0.1929462105,
403.0449219,0.1913667619,403.0449219,0.1914906949,
401.9646606,0.1899265349,401.9646606,0.1889542639,
401.0385742,0.1889893711,401.0385742,0.1892039478,
399.9579773,0.1871409863,399.9579773,0.1870796531,
399.0315857,0.1864477098,399.0315857,0.1866558939,
397.9506531,0.1835424751,397.9506531,0.1850597113,
397.0239563,0.1836065948,397.0239563,0.1836725771,
395.9426575,0.1817698181,395.9426575,0.1821675748,
395.015686,0.1804355681,395.015686,0.1810462624,
393.934021,0.1792831123,393.934021,0.1794196814,
393.0067444,0.1781668365,393.0067444,0.178028658,
391.9247742,0.176173225,391.9247742,0.1762773544,
390.9971924,0.1760799438,390.9971924,0.1751429141,
390.0694885,0.1731501818,390.0694885,0.1740459055,
388.9869995,0.1732317656,388.9869995,0.1727835685,
388.0589905,0.1719542146,388.0589905,0.1731687039,
386.9761658,0.1703430116,386.9761658,0.170431301,
386.0478821,0.1695857644,386.0478821,0.1693000495,
384.9647217,0.1672544479,384.9647217,0.1676206887,
384.0361328,0.1670405567,384.0361328,0.1659383029,
382.9526367,0.165711537,382.9526367,0.1651754826,
382.0237732,0.1646564305,382.0237732,0.1646877229,
380.9399109,0.1629773825,380.9399109,0.1627513915,
380.0107727,0.1611826569,380.0107727,0.1610922366,
378.9265747,0.1600426733,378.9265747,0.1599224359,
377.9971619,0.1592561901,377.9971619,0.1594888717,
377.0675964,0.1577938646,377.0675964,0.1575868577,
375.9829407,0.1554281414,375.9829407,0.1559403539,
375.0530701,0.1544865519,375.0530701,0.1544705182,
373.9680786,0.1531629562,373.9680786,0.1530863941,
373.0379639,0.1520230323,373.0379639,0.1517068446,
371.9526367,0.1493898481,371.9526367,0.1500237435,
371.0222168,0.1478802562,371.0222168,0.1480975151,
369.9365845,0.1458900273,369.9365845,0.1462298781,
369.0058899,0.1446806788,369.0058899,0.1435976475,
368.0750732,0.1422846913,368.0750732,0.1429633349,
366.9889832,0.1408279836,366.9889832,0.1403369606,
366.0578918,0.1398912668,366.0578918,0.1392111182,
364.9714355,0.1378509998,364.9714355,0.1375802159,
364.0400696,0.1363582164,364.0400696,0.1363448799,
362.9533386,0.1356504261,362.9533386,0.1356651038,
362.021698,0.1335655004,362.021698,0.1341695487,
360.9346313,0.1328253001,360.9346313,0.1330774873,
360.0027161,0.1309126616,360.0027161,0.1294916272,
359.0706787,0.1313799918,359.0706787,0.1319756806,
357.9831543,0.131013602,357.9831543,0.1312580407,
357.0508423,0.1311698705,357.0508423,0.1308242828,
355.9629822,0.1309930086,355.9629822,0.1313150972,
355.030426,0.1319499314,355.030426,0.1310722977,
353.9422607,0.1322900951,353.9422607,0.1326753944,
353.0094299,0.1335121989,353.0094299,0.1333253086,
352.0764771,0.1349810064,352.0764771,0.1352171749,
350.987854,0.1369632781,350.987854,0.1371111721,
350.0546265,0.139514789,350.0546265,0.139867112,
348.9657288,0.1429795623,348.9657288,0.1432469338,
348.0322266,0.1472180933,348.0322266,0.1467057914,
346.9430237,0.1505784094,346.9430237,0.1506326497,
346.0092773,0.1556078196,346.0092773,0.1546645463,
345.0754089,0.1613866091,345.0754089,0.1612693965,
343.9857483,0.1676144451,343.9857483,0.1682214141,
343.0516052,0.1749833971,343.0516052,0.1751777828,
341.9616394,0.1842900068,341.9616394,0.1843182892,
341.0272827,0.1940020919,341.0272827,0.192125544,
339.9370117,0.2069013119,339.9370117,0.2069788575,
339.0023804,0.219056949,339.0023804,0.2190489322,
338.067627,0.2308605164,338.067627,0.2302698344,
336.9769287,0.2453406304,336.9769287,0.2452209145,
336.0419006,0.2598647475,336.0419006,0.2600325048,
334.9509277,0.2810713649,334.9509277,0.2799963653,
334.0156555,0.300780952,334.0156555,0.3003819883,
332.9243774,0.3209838271,332.9243774,0.3207122087,
331.9888611,0.3385858536,331.9888611,0.3381972909,
331.0532532,0.3584184051,331.0532532,0.356738776,
329.9615479,0.3887776732,329.9615479,0.3888635933,
329.0256653,0.4141896963,329.0256653,0.4112130702,
327.9336548,0.447031498,327.9336548,0.4429746866,
326.9975586,0.4651928544,326.9975586,0.46277982,
326.0613098,0.4881019294,326.0613098,0.4909784496,
324.9689026,0.5303387046,324.9689026,0.5248645544,
324.0324097,0.5565891266,324.0324097,0.5533371568,
322.9397278,0.5909334421,322.9397278,0.5909472704,
322.0029907,0.6183892488,322.0029907,0.6161224842,
321.0661621,0.6482521892,321.0661621,0.6433094144,
319.973053,0.6904799938,319.973053,0.6839165092,
319.0359802,0.7179057002,319.0359802,0.7153819203,
317.9425964,0.7576810122,317.9425964,0.7512900233,
317.0052795,0.7779944539,317.0052795,0.7766564488,
316.0678711,0.8115357757,316.0678711,0.8087328076,
314.9740601,0.8501835465,314.9740601,0.8506014347,
314.0364075,0.8815870881,314.0364075,0.880233705,
312.9423523,0.9195657372,312.9423523,0.9170786738,
312.0044556,0.9425195456,312.0044556,0.9448497295,
311.0664673,0.9671016932,311.0664673,0.9676758647,
309.9719849,1.001929402,309.9719849,1.003182292,
309.0337524,1.02749753,309.0337524,1.026679754,
307.9389954,1.056707382,307.9389954,1.058271408,
307.0005493,1.075335741,307.0005493,1.072698593,
306.0619812,1.094907761,306.0619812,1.096176028,
304.9668274,1.124059319,304.9668274,1.121415734,
304.0280457,1.143934488,304.0280457,1.144899726,
302.9326477,1.170446038,302.9326477,1.166003704,
301.9936218,1.183364511,301.9936218,1.180519223,
301.0544739,1.195446134,301.0544739,1.193969011,
299.9586792,1.221536398,299.9586792,1.218364477,
299.0193176,1.238036275,299.0193176,1.234707594,
297.9232788,1.257549167,297.9232788,1.254361391,
296.9837036,1.269721031,296.9837036,1.268332243,
296.0440063,1.284731269,296.0440063,1.284038067,
294.9476013,1.304793,294.9476013,1.305183411,
294.0076904,1.320657134,294.0076904,1.322930694,
293.0676575,1.340022445,293.0676575,1.338962078,
291.9708557,1.356908441,291.9708557,1.355012655,
291.0306396,1.371541142,291.0306396,1.372118235,
289.9335938,1.394412518,289.9335938,1.390595317,
288.9931335,1.414951444,288.9931335,1.41562283,
288.0525818,1.431840301,288.0525818,1.43221283,
286.9551697,1.456772089,286.9551697,1.456249356,
286.0144043,1.476892829,286.0144043,1.474293947,
285.0735474,1.499519825,285.0735474,1.49972105,
283.9757385,1.525963187,283.9757385,1.522451282,
283.034668,1.54522562,283.034668,1.545666456,
281.936615,1.566269636,281.936615,1.566541433,
280.9953308,1.588111639,280.9953308,1.58382833,
280.0539551,1.606747746,280.0539551,1.605936408,
278.9555664,1.635345101,278.9555664,1.631125927,
278.0139465,1.651607752,278.0139465,1.650564909,
277.0722656,1.668417931,277.0722656,1.66519618,
275.9735107,1.685833216,275.9735107,1.691948533,
275.0316162,1.708762884,275.0316162,1.704523921,
273.9326172,1.724837542,273.9326172,1.727905154,
272.990509,1.737562299,272.990509,1.7396456,
272.0483093,1.752123952,272.0483093,1.751410604,
270.9489746,1.758256555,270.9489746,1.761742592,
270.0065613,1.785140634,270.0065613,1.779826164,
269.0640869,1.795966148,269.0640869,1.7910887,
267.964386,1.805683494,267.964386,1.800895214,
267.021698,1.807996154,267.021698,1.807081819,
265.9217529,1.827575445,265.9217529,1.815282106,
264.9788513,1.836251974,264.9788513,1.827015281,
264.0358887,1.847063303,264.0358887,1.841587067,
262.9356079,1.848873973,262.9356079,1.843641162,
261.9924316,1.857842922,261.9924316,1.855916381,
261.0491638,1.858388662,261.0491638,1.863969803,
259.9485474,1.865962386,259.9485474,1.869105101,
259.0050659,1.874337673,259.0050659,1.873101234,
258.0615234,1.873144269,258.0615234,1.87460506,
256.9605713,1.879268289,256.9605713,1.88285315,
256.0168457,1.88676703,256.0168457,1.885701776,
255.072998,1.891272783,255.072998,1.880799055,
253.9717255,1.896389365,253.9717255,1.891762853,
253.0276947,1.8894521,253.0276947,1.888883233,
251.9262085,1.892756701,251.9262085,1.888216972,
250.9819946,1.884703517,250.9819946,1.89131999,
250.0376892,1.883605361,250.0376892,1.878718853,
248.9422302,1.876158357,248.9422302,1.878905058,
248.0033722,1.864468217,248.0033722,1.862609744,
247.0644226,1.855884075,247.0644226,1.855682611,
245.9688721,1.842950583,245.9688721,1.845894814,
245.0297394,1.840772152,245.0297394,1.83643353,
243.9339752,1.832036614,243.9339752,1.829864025,
242.9946594,1.829171777,242.9946594,1.823607564,
242.0552673,1.819223285,242.0552673,1.816468835,
240.959198,1.800618768,240.959198,1.798444152,
240.0196228,1.786853433,240.0196228,1.7934407,
238.9233398,1.779303908,238.9233398,1.782118201,
237.9835815,1.775258899,237.9835815,1.77592504,
237.0437469,1.767313361,237.0437469,1.765507102,
235.9471741,1.764876962,235.9471741,1.756432533,
235.0071564,1.761895537,235.0071564,1.759307623,
234.0670624,1.75739789,234.0670624,1.751406193,
232.9701843,1.754032731,232.9701843,1.74710238,
232.0299072,1.746274114,232.0299072,1.740768313,
230.9328308,1.740736365,230.9328308,1.751020432,
229.9923859,1.743187189,229.9923859,1.727145314,
229.0518646,1.73468256,229.0518646,1.727989316,
227.9544983,1.724882364,227.9544983,1.72407639,
227.0138092,1.717918873,227.0138092,1.722362161,
226.0730286,1.71114552,226.0730286,1.709858656,
224.9753723,1.706144452,224.9753723,1.706779718,
224.0344391,1.702407241,224.0344391,1.702335119,
222.9365845,1.698615432,222.9365845,1.697916389,
221.9954834,1.694073081,221.9954834,1.692180514,
221.054306,1.685132742,221.054306,1.681289554,
219.9561615,1.680995464,219.9561615,1.67781055,
219.0148163,1.675323844,219.0148163,1.673106194,
218.0733948,1.670601726,218.0733948,1.670344234,
216.9749756,1.666878581,216.9749756,1.661675811,
216.0334015,1.663773537,216.0334015,1.652562141,
214.9347992,1.663053989,214.9347992,1.655660391,
213.9930573,1.655413389,213.9930573,1.650407672,
213.051239,1.643215537,213.051239,1.653175592,
211.9523621,1.639197707,211.9523621,1.644079924,
211.0103912,1.63781476,211.0103912,1.635811925,
210.0683441,1.634953737,210.0683441,1.632485271,
208.9692078,1.634765148,208.9692078,1.630382299,
208.0270081,1.630035877,208.0270081,1.631781936,
206.9276733,1.626242518,206.9276733,1.633835077,
205.985321,1.618065238,205.985321,1.618539214,
205.0428925,1.614628077,205.0428925,1.618358731,
203.9433136,1.605589747,203.9433136,1.608106017,
203.0007324,1.605916739,203.0007324,1.604995131,
202.0580902,1.599369764,202.0580902,1.602382183,
200.9582367,1.595816374,200.9582367,1.598896623,
200.0154419,1.593763709,200.0154419,1.600232124,
199.0613708,1.592372298,199.0613708,1.596667886,
197.947998,1.593824506,197.947998,1.591569304,
196.9935913,1.593014359,196.9935913,1.595172286,
196.0391388,1.595487952,196.0391388,1.592865944,
194.9255066,1.599895477,194.9255066,1.594574451,
193.9708862,1.599173903,193.9708862,1.598554373,
193.0162048,1.603939891,193.0162048,1.597736359,
192.0614624,1.609713912,192.0614624,1.625886083,
190.9474945,1.627555609,190.9474945,1.620266914,
189.9925995,1.638312578,189.9925995,1.644294381,

sample1,
sample1
Collection Time: 9/28/2017 1:56:24 PM
Operator Name  :
Scan Software Version: 3.00(303)
Parameter List :
Instrument                        Cary 50
Instrument Version                3.00
Start (nm)                        800.0
Stop (nm)                         190.0
X Mode                            Nanometers
Y Mode                            Abs
UV-Vis Scan Rate (nm/min)         4800.000
UV-Vis Data Interval (nm)         1.00
UV-Vis Ave. Time (sec)            0.0125
Beam Mode                         Dual Beam
Baseline Correction               Off
Cycle Mode                        Off
Comments
Method Log     :
Method Name    :
Date/Time stamp: 9/28/2017 1:50:33 PM
Method Modifications:
X Stop nm Changed: 9/28/2017 1:54:37 PM, Old:  200.0, New:  190.0
Y Max Abs Changed: 9/28/2017 1:54:37 PM, Old:     1.00, New:     3.00
End Method Modifications
<Current Wavelength> , 203.0

sample1,
sample1
Collection Time: 9/28/2017 1:57:45 PM
Operator Name  :
Scan Software Version: 3.00(303)
Parameter List :
Instrument                        Cary 50
Instrument Version                3.00
Start (nm)                        800.0
Stop (nm)                         190.0
X Mode                            Nanometers
Y Mode                            Abs
UV-Vis Scan Rate (nm/min)         4800.000
UV-Vis Data Interval (nm)         1.00
UV-Vis Ave. Time (sec)            0.0125
Beam Mode                         Dual Beam
Baseline Correction               Off
Cycle Mode                        Off
Comments
Method Log     :
Method Name    :
Date/Time stamp: 9/28/2017 1:50:33 PM
Method Modifications:
X Stop nm Changed: 9/28/2017 1:54:37 PM, Old:  200.0, New:  190.0
Y Max Abs Changed: 9/28/2017 1:54:37 PM, Old:     1.00, New:     3.00
XY Table Changed: 9/28/2017 1:57:19 PM, Old:0, New:1
End Method Modifications
<Current Wavelength> , 202.1

